#FTIR spectrum
#reflectance
3967.39861 0.00515
3965.46988 0.00440
3963.54115 0.00277
3961.61242 0.00093
3959.68369 0.00000
3957.75496 0.00045
3955.82623 0.00151
3953.89750 0.00233
3951.96877 0.00274
3950.04004 0.00276
3948.11131 0.00273
3946.18258 0.00303
3944.25385 0.00350
3942.32512 0.00387
3940.39639 0.00407
3938.46766 0.00405
3936.53893 0.00386
3934.61020 0.00359
3932.68146 0.00330
3930.75273 0.00303
3928.82400 0.00259
3926.89527 0.00203
3924.96654 0.00213
3923.03781 0.00278
3921.10908 0.00284
3919.18035 0.00232
3917.25162 0.00227
3915.32289 0.00261
3913.39416 0.00260
3911.46543 0.00236
3909.53670 0.00220
3907.60797 0.00227
3905.67924 0.00302
3903.75051 0.00434
3901.82178 0.00512
3899.89305 0.00513
3897.96432 0.00499
3896.03559 0.00481
3894.10685 0.00461
3892.17812 0.00456
3890.24939 0.00446
3888.32066 0.00419
3886.39193 0.00417
3884.46320 0.00432
3882.53447 0.00412
3880.60574 0.00351
3878.67701 0.00278
3876.74828 0.00226
3874.81955 0.00210
3872.89082 0.00210
3870.96209 0.00195
3869.03336 0.00138
3867.10463 0.00111
3865.17590 0.00240
3863.24717 0.00458
3861.31844 0.00567
3859.38971 0.00521
3857.46098 0.00422
3855.53225 0.00392
3853.60351 0.00497
3851.67478 0.00652
3849.74605 0.00720
3847.81732 0.00700
3845.88859 0.00685
3843.95986 0.00699
3842.03113 0.00673
3840.10240 0.00582
3838.17367 0.00490
3836.24494 0.00433
3834.31621 0.00409
3832.38748 0.00442
3830.45875 0.00526
3828.53002 0.00589
3826.60129 0.00592
3824.67256 0.00588
3822.74383 0.00652
3820.81510 0.00782
3818.88637 0.00886
3816.95764 0.00911
3815.02890 0.00863
3813.10017 0.00787
3811.17144 0.00743
3809.24271 0.00720
3807.31398 0.00653
3805.38525 0.00548
3803.45652 0.00478
3801.52779 0.00478
3799.59906 0.00511
3797.67033 0.00537
3795.74160 0.00569
3793.81287 0.00633
3791.88414 0.00721
3789.95541 0.00788
3788.02668 0.00802
3786.09795 0.00778
3784.16922 0.00736
3782.24049 0.00688
3780.31176 0.00674
3778.38303 0.00721
3776.45430 0.00777
3774.52556 0.00793
3772.59683 0.00808
3770.66810 0.00874
3768.73937 0.00942
3766.81064 0.00943
3764.88191 0.00894
3762.95318 0.00848
3761.02445 0.00813
3759.09572 0.00766
3757.16699 0.00687
3755.23826 0.00594
3753.30953 0.00537
3751.38080 0.00532
3749.45207 0.00534
3747.52334 0.00515
3745.59461 0.00537
3743.66588 0.00692
3741.73715 0.00951
3739.80842 0.01172
3737.87969 0.01247
3735.95095 0.01173
3734.02222 0.01029
3732.09349 0.00922
3730.16476 0.00904
3728.23603 0.00953
3726.30730 0.01023
3724.37857 0.01070
3722.44984 0.01046
3720.52111 0.00952
3718.59238 0.00857
3716.66365 0.00847
3714.73492 0.00925
3712.80619 0.00999
3710.87746 0.00996
3708.94873 0.00960
3707.02000 0.00954
3705.09127 0.00966
3703.16254 0.00969
3701.23381 0.00949
3699.30508 0.00914
3697.37635 0.00878
3695.44761 0.00826
3693.51888 0.00764
3691.59015 0.00755
3689.66142 0.00826
3687.73269 0.00910
3685.80396 0.00928
3683.87523 0.00856
3681.94650 0.00749
3680.01777 0.00727
3678.08904 0.00854
3676.16031 0.01041
3674.23158 0.01097
3672.30285 0.00955
3670.37412 0.00742
3668.44539 0.00618
3666.51666 0.00626
3664.58793 0.00695
3662.65920 0.00750
3660.73047 0.00776
3658.80174 0.00809
3656.87300 0.00878
3654.94427 0.00953
3653.01554 0.01000
3651.08681 0.01088
3649.15808 0.01268
3647.22935 0.01420
3645.30062 0.01400
3643.37189 0.01259
3641.44316 0.01158
3639.51443 0.01167
3637.58570 0.01228
3635.65697 0.01262
3633.72824 0.01257
3631.79951 0.01246
3629.87078 0.01246
3627.94205 0.01246
3626.01332 0.01235
3624.08459 0.01230
3622.15586 0.01222
3620.22713 0.01211
3618.29840 0.01244
3616.36966 0.01349
3614.44093 0.01483
3612.51220 0.01588
3610.58347 0.01660
3608.65474 0.01714
3606.72601 0.01720
3604.79728 0.01665
3602.86855 0.01623
3600.93982 0.01644
3599.01109 0.01722
3597.08236 0.01806
3595.15363 0.01778
3593.22490 0.01648
3591.29617 0.01633
3589.36744 0.01793
3587.43871 0.01929
3585.50998 0.01941
3583.58125 0.01917
3581.65252 0.01895
3579.72379 0.01860
3577.79505 0.01830
3575.86632 0.01831
3573.93759 0.01888
3572.00886 0.02012
3570.08013 0.02193
3568.15140 0.02357
3566.22267 0.02364
3564.29394 0.02240
3562.36521 0.02213
3560.43648 0.02376
3558.50775 0.02546
3556.57902 0.02570
3554.65029 0.02539
3552.72156 0.02542
3550.79283 0.02532
3548.86410 0.02493
3546.93537 0.02517
3545.00664 0.02659
3543.07791 0.02840
3541.14918 0.02952
3539.22045 0.02998
3537.29171 0.03035
3535.36298 0.03049
3533.43425 0.03035
3531.50552 0.03087
3529.57679 0.03232
3527.64806 0.03335
3525.71933 0.03341
3523.79060 0.03376
3521.86187 0.03503
3519.93314 0.03626
3518.00441 0.03674
3516.07568 0.03681
3514.14695 0.03705
3512.21822 0.03790
3510.28949 0.03902
3508.36076 0.03958
3506.43203 0.03940
3504.50330 0.03863
3502.57457 0.03784
3500.64584 0.03841
3498.71710 0.04064
3496.78837 0.04288
3494.85964 0.04338
3492.93091 0.04255
3491.00218 0.04234
3489.07345 0.04360
3487.14472 0.04537
3485.21599 0.04634
3483.28726 0.04696
3481.35853 0.04872
3479.42980 0.05106
3477.50107 0.05230
3475.57234 0.05270
3473.64361 0.05349
3471.71488 0.05472
3469.78615 0.05572
3467.85742 0.05627
3465.92869 0.05676
3463.99996 0.05750
3462.07123 0.05853
3460.14250 0.05972
3458.21376 0.06066
3456.28503 0.06125
3454.35630 0.06172
3452.42757 0.06239
3450.49884 0.06356
3448.57011 0.06488
3446.64138 0.06567
3444.71265 0.06559
3442.78392 0.06556
3440.85519 0.06699
3438.92646 0.06921
3436.99773 0.07013
3435.06900 0.06966
3433.14027 0.06980
3431.21154 0.07170
3429.28281 0.07444
3427.35408 0.07658
3425.42535 0.07795
3423.49662 0.07976
3421.56789 0.08275
3419.63915 0.08597
3417.71042 0.08817
3415.78169 0.08951
3413.85296 0.09123
3411.92423 0.09408
3409.99550 0.09746
3408.06677 0.10012
3406.13804 0.10104
3404.20931 0.10106
3402.28058 0.10252
3400.35185 0.10537
3398.42312 0.10680
3396.49439 0.10580
3394.56566 0.10467
3392.63693 0.10603
3390.70820 0.10931
3388.77947 0.11193
3386.85074 0.11315
3384.92201 0.11435
3382.99328 0.11648
3381.06455 0.11953
3379.13581 0.12305
3377.20708 0.12574
3375.27835 0.12684
3373.34962 0.12818
3371.42089 0.13158
3369.49216 0.13571
3367.56343 0.13876
3365.63470 0.14080
3363.70597 0.14246
3361.77724 0.14417
3359.84851 0.14647
3357.91978 0.14984
3355.99105 0.15417
3354.06232 0.15842
3352.13359 0.16185
3350.20486 0.16520
3348.27613 0.16858
3346.34740 0.17053
3344.41867 0.17096
3342.48994 0.17108
3340.56120 0.17092
3338.63247 0.16955
3336.70374 0.16666
3334.77501 0.16326
3332.84628 0.16077
3330.91755 0.15896
3328.98882 0.15611
3327.06009 0.15202
3325.13136 0.14845
3323.20263 0.14595
3321.27390 0.14382
3319.34517 0.14226
3317.41644 0.14153
3315.48771 0.14109
3313.55898 0.14036
3311.63025 0.13907
3309.70152 0.13756
3307.77279 0.13659
3305.84406 0.13618
3303.91533 0.13603
3301.98660 0.13571
3300.05786 0.13429
3298.12913 0.13200
3296.20040 0.13056
3294.27167 0.13031
3292.34294 0.12965
3290.41421 0.12824
3288.48548 0.12718
3286.55675 0.12654
3284.62802 0.12580
3282.69929 0.12527
3280.77056 0.12527
3278.84183 0.12532
3276.91310 0.12454
3274.98437 0.12292
3273.05564 0.12119
3271.12691 0.12019
3269.19818 0.12006
3267.26945 0.11954
3265.34072 0.11792
3263.41199 0.11637
3261.48325 0.11551
3259.55452 0.11457
3257.62579 0.11309
3255.69706 0.11132
3253.76833 0.10965
3251.83960 0.10921
3249.91087 0.11033
3247.98214 0.11085
3246.05341 0.10940
3244.12468 0.10742
3242.19595 0.10657
3240.26722 0.10706
3238.33849 0.10771
3236.40976 0.10724
3234.48103 0.10573
3232.55230 0.10394
3230.62357 0.10184
3228.69484 0.09941
3226.76611 0.09737
3224.83738 0.09569
3222.90865 0.09395
3220.97991 0.09236
3219.05118 0.09078
3217.12245 0.08859
3215.19372 0.08608
3213.26499 0.08386
3211.33626 0.08165
3209.40753 0.07959
3207.47880 0.07853
3205.55007 0.07814
3203.62134 0.07775
3201.69261 0.07728
3199.76388 0.07643
3197.83515 0.07488
3195.90642 0.07309
3193.97769 0.07125
3192.04896 0.06950
3190.12023 0.06861
3188.19150 0.06841
3186.26277 0.06768
3184.33404 0.06610
3182.40530 0.06446
3180.47657 0.06346
3178.54784 0.06307
3176.61911 0.06273
3174.69038 0.06209
3172.76165 0.06137
3170.83292 0.06090
3168.90419 0.06082
3166.97546 0.06073
3165.04673 0.06032
3163.11800 0.05999
3161.18927 0.05992
3159.26054 0.05944
3157.33181 0.05794
3155.40308 0.05644
3153.47435 0.05618
3151.54562 0.05647
3149.61689 0.05619
3147.68816 0.05568
3145.75943 0.05560
3143.83070 0.05530
3141.90196 0.05458
3139.97323 0.05431
3138.04450 0.05409
3136.11577 0.05306
3134.18704 0.05191
3132.25831 0.05169
3130.32958 0.05209
3128.40085 0.05218
3126.47212 0.05182
3124.54339 0.05124
3122.61466 0.05046
3120.68593 0.04967
3118.75720 0.04930
3116.82847 0.04911
3114.89974 0.04850
3112.97101 0.04783
3111.04228 0.04772
3109.11355 0.04782
3107.18482 0.04762
3105.25609 0.04731
3103.32735 0.04722
3101.39862 0.04708
3099.46989 0.04674
3097.54116 0.04652
3095.61243 0.04618
3093.68370 0.04580
3091.75497 0.04583
3089.82624 0.04576
3087.89751 0.04520
3085.96878 0.04495
3084.04005 0.04525
3082.11132 0.04525
3080.18259 0.04467
3078.25386 0.04415
3076.32513 0.04380
3074.39640 0.04301
3072.46767 0.04218
3070.53894 0.04230
3068.61021 0.04300
3066.68148 0.04312
3064.75275 0.04236
3062.82401 0.04142
3060.89528 0.04120
3058.96655 0.04172
3057.03782 0.04241
3055.10909 0.04268
3053.18036 0.04211
3051.25163 0.04100
3049.32290 0.04010
3047.39417 0.03999
3045.46544 0.04056
3043.53671 0.04092
3041.60798 0.04081
3039.67925 0.04110
3037.75052 0.04221
3035.82179 0.04318
3033.89306 0.04302
3031.96433 0.04199
3030.03560 0.04106
3028.10687 0.04067
3026.17814 0.04054
3024.24940 0.04037
3022.32067 0.04017
3020.39194 0.04002
3018.46321 0.03987
3016.53448 0.03946
3014.60575 0.03892
3012.67702 0.03894
3010.74829 0.03951
3008.81956 0.03976
3006.89083 0.03940
3004.96210 0.03870
3003.03337 0.03812
3001.10464 0.03803
2999.17591 0.03812
2997.24718 0.03805
2995.31845 0.03831
2993.38972 0.03895
2991.46099 0.03948
2989.53226 0.03980
2987.60353 0.04018
2985.67480 0.04052
2983.74606 0.04079
2981.81733 0.04113
2979.88860 0.04120
2977.95987 0.04119
2976.03114 0.04186
2974.10241 0.04311
2972.17368 0.04408
2970.24495 0.04450
2968.31622 0.04481
2966.38749 0.04489
2964.45876 0.04469
2962.53003 0.04502
2960.60130 0.04579
2958.67257 0.04634
2956.74384 0.04692
2954.81511 0.04753
2952.88638 0.04778
2950.95765 0.04798
2949.02892 0.04860
2947.10019 0.04932
2945.17145 0.04955
2943.24272 0.04959
2941.31399 0.04994
2939.38526 0.05024
2937.45653 0.04994
2935.52780 0.04957
2933.59907 0.05002
2931.67034 0.05093
2929.74161 0.05148
2927.81288 0.05179
2925.88415 0.05241
2923.95542 0.05341
2922.02669 0.05456
2920.09796 0.05582
2918.16923 0.05715
2916.24050 0.05831
2914.31177 0.05927
2912.38304 0.06034
2910.45431 0.06162
2908.52558 0.06287
2906.59685 0.06399
2904.66811 0.06489
2902.73938 0.06538
2900.81065 0.06572
2898.88192 0.06642
2896.95319 0.06743
2895.02446 0.06822
2893.09573 0.06835
2891.16700 0.06752
2889.23827 0.06592
2887.30954 0.06446
2885.38081 0.06346
2883.45208 0.06270
2881.52335 0.06214
2879.59462 0.06166
2877.66589 0.06125
2875.73716 0.06129
2873.80843 0.06169
2871.87970 0.06142
2869.95097 0.06019
2868.02224 0.05901
2866.09350 0.05873
2864.16477 0.05887
2862.23604 0.05850
2860.30731 0.05787
2858.37858 0.05772
2856.44985 0.05771
2854.52112 0.05734
2852.59239 0.05678
2850.66366 0.05619
2848.73493 0.05536
2846.80620 0.05443
2844.87747 0.05367
2842.94874 0.05295
2841.02001 0.05212
2839.09128 0.05121
2837.16255 0.05037
2835.23382 0.04977
2833.30509 0.04930
2831.37636 0.04895
2829.44763 0.04858
2827.51890 0.04803
2825.59016 0.04754
2823.66143 0.04755
2821.73270 0.04784
2819.80397 0.04755
2817.87524 0.04679
2815.94651 0.04636
2814.01778 0.04636
2812.08905 0.04639
2810.16032 0.04623
2808.23159 0.04610
2806.30286 0.04610
2804.37413 0.04585
2802.44540 0.04550
2800.51667 0.04529
2798.58794 0.04492
2796.65921 0.04453
2794.73048 0.04451
2792.80175 0.04459
2790.87302 0.04464
2788.94429 0.04502
2787.01555 0.04557
2785.08682 0.04572
2783.15809 0.04545
2781.22936 0.04506
2779.30063 0.04469
2777.37190 0.04431
2775.44317 0.04415
2773.51444 0.04440
2771.58571 0.04473
2769.65698 0.04471
2767.72825 0.04458
2765.79952 0.04467
2763.87079 0.04459
2761.94206 0.04415
2760.01333 0.04383
2758.08460 0.04387
2756.15587 0.04405
2754.22714 0.04420
2752.29841 0.04441
2750.36968 0.04454
2748.44095 0.04426
2746.51221 0.04375
2744.58348 0.04361
2742.65475 0.04404
2740.72602 0.04444
2738.79729 0.04433
2736.86856 0.04407
2734.93983 0.04407
2733.01110 0.04410
2731.08237 0.04369
2729.15364 0.04326
2727.22491 0.04347
2725.29618 0.04386
2723.36745 0.04388
2721.43872 0.04378
2719.50999 0.04371
2717.58126 0.04361
2715.65253 0.04360
2713.72380 0.04382
2711.79507 0.04396
2709.86634 0.04364
2707.93760 0.04320
2706.00887 0.04314
2704.08014 0.04340
2702.15141 0.04359
2700.22268 0.04327
2698.29395 0.04259
2696.36522 0.04192
2694.43649 0.04135
2692.50776 0.04105
2690.57903 0.04101
2688.65030 0.04098
2686.72157 0.04091
2684.79284 0.04094
2682.86411 0.04104
2680.93538 0.04107
2679.00665 0.04118
2677.07792 0.04137
2675.14919 0.04139
2673.22046 0.04104
2671.29173 0.04048
2669.36300 0.04029
2667.43426 0.04059
2665.50553 0.04088
2663.57680 0.04086
2661.64807 0.04058
2659.71934 0.04027
2657.79061 0.04017
2655.86188 0.04017
2653.93315 0.03990
2652.00442 0.03950
2650.07569 0.03978
2648.14696 0.04062
2646.21823 0.04084
2644.28950 0.04008
2642.36077 0.03920
2640.43204 0.03894
2638.50331 0.03895
2636.57458 0.03872
2634.64585 0.03856
2632.71712 0.03859
2630.78839 0.03839
2628.85965 0.03823
2626.93092 0.03821
2625.00219 0.03794
2623.07346 0.03776
2621.14473 0.03797
2619.21600 0.03816
2617.28727 0.03789
2615.35854 0.03729
2613.42981 0.03703
2611.50108 0.03733
2609.57235 0.03759
2607.64362 0.03733
2605.71489 0.03688
2603.78616 0.03688
2601.85743 0.03733
2599.92870 0.03773
2597.99997 0.03795
2596.07124 0.03803
2594.14251 0.03773
2592.21378 0.03716
2590.28505 0.03680
2588.35631 0.03718
2586.42758 0.03817
2584.49885 0.03844
2582.57012 0.03743
2580.64139 0.03662
2578.71266 0.03698
2576.78393 0.03774
2574.85520 0.03797
2572.92647 0.03769
2570.99774 0.03777
2569.06901 0.03842
2567.14028 0.03869
2565.21155 0.03843
2563.28282 0.03848
2561.35409 0.03873
2559.42536 0.03870
2557.49663 0.03857
2555.56790 0.03805
2553.63917 0.03706
2551.71044 0.03635
2549.78170 0.03588
2547.85297 0.03570
2545.92424 0.03613
2543.99551 0.03671
2542.06678 0.03701
2540.13805 0.03713
2538.20932 0.03697
2536.28059 0.03651
2534.35186 0.03612
2532.42313 0.03622
2530.49440 0.03667
2528.56567 0.03709
2526.63694 0.03763
2524.70821 0.03821
2522.77948 0.03787
2520.85075 0.03696
2518.92202 0.03692
2516.99329 0.03733
2515.06456 0.03712
2513.13583 0.03684
2511.20710 0.03734
2509.27836 0.03765
2507.34963 0.03692
2505.42090 0.03565
2503.49217 0.03437
2501.56344 0.03405
2499.63471 0.03516
2497.70598 0.03638
2495.77725 0.03665
2493.84852 0.03623
2491.91979 0.03574
2489.99106 0.03549
2488.06233 0.03544
2486.13360 0.03531
2484.20487 0.03524
2482.27614 0.03566
2480.34741 0.03619
2478.41868 0.03608
2476.48995 0.03563
2474.56122 0.03553
2472.63249 0.03567
2470.70375 0.03568
2468.77502 0.03548
2466.84629 0.03540
2464.91756 0.03563
2462.98883 0.03561
2461.06010 0.03524
2459.13137 0.03501
2457.20264 0.03500
2455.27391 0.03514
2453.34518 0.03520
2451.41645 0.03508
2449.48772 0.03510
2447.55899 0.03522
2445.63026 0.03541
2443.70153 0.03569
2441.77280 0.03568
2439.84407 0.03531
2437.91534 0.03491
2435.98661 0.03503
2434.05788 0.03564
2432.12915 0.03580
2430.20041 0.03525
2428.27168 0.03475
2426.34295 0.03461
2424.41422 0.03477
2422.48549 0.03527
2420.55676 0.03582
2418.62803 0.03589
2416.69930 0.03557
2414.77057 0.03521
2412.84184 0.03490
2410.91311 0.03463
2408.98438 0.03456
2407.05565 0.03475
2405.12692 0.03486
2403.19819 0.03467
2401.26946 0.03435
2399.34073 0.03331
2397.41200 0.03210
2395.48327 0.03238
2393.55454 0.03287
2391.62580 0.03329
2389.69707 0.03431
2387.76834 0.03663
2385.83961 0.04073
2383.91088 0.04669
2381.98215 0.05353
2380.05342 0.05980
2378.12469 0.06489
2376.19596 0.06881
2374.26723 0.07105
2372.33850 0.07142
2370.40977 0.07031
2368.48104 0.06769
2366.55231 0.06378
2364.62358 0.05922
2362.69485 0.05400
2360.76612 0.04762
2358.83739 0.03735
2356.90866 0.02178
2354.97993 0.00581
2353.05120 0.00000
2351.12246 0.01226
2349.19373 0.03778
2347.26500 0.06249
2345.33627 0.07085
2343.40754 0.05972
2341.47881 0.04503
2339.55008 0.03756
2337.62135 0.03567
2335.69262 0.03637
2333.76389 0.03771
2331.83516 0.03747
2329.90643 0.03540
2327.97770 0.03492
2326.04897 0.03741
2324.12024 0.03890
2322.19151 0.03619
2320.26278 0.03179
2318.33405 0.03008
2316.40532 0.03156
2314.47659 0.03306
2312.54785 0.03243
2310.61912 0.03106
2308.69039 0.03077
2306.76166 0.03131
2304.83293 0.03222
2302.90420 0.03344
2300.97547 0.03429
2299.04674 0.03416
2297.11801 0.03380
2295.18928 0.03452
2293.26055 0.03622
2291.33182 0.03752
2289.40309 0.03793
2287.47436 0.03811
2285.54563 0.03865
2283.61690 0.03952
2281.68817 0.04020
2279.75944 0.04045
2277.83071 0.04021
2275.90198 0.03952
2273.97325 0.03915
2272.04451 0.03961
2270.11578 0.03986
2268.18705 0.03912
2266.25832 0.03798
2264.32959 0.03720
2262.40086 0.03696
2260.47213 0.03699
2258.54340 0.03699
2256.61467 0.03671
2254.68594 0.03660
2252.75721 0.03712
2250.82848 0.03706
2248.89975 0.03768
2246.97102 0.03832
2245.04229 0.03845
2243.11356 0.03753
2241.18483 0.03621
2239.25610 0.03615
2237.32737 0.03733
2235.39864 0.03843
2233.46990 0.03912
2231.54117 0.03939
2229.61244 0.03861
2227.68371 0.03765
2225.75498 0.03790
2223.82625 0.03825
2221.89752 0.03789
2219.96879 0.03776
2218.04006 0.03807
2216.11133 0.03858
2214.18260 0.03918
2212.25387 0.03922
2210.32514 0.03866
2208.39641 0.03851
2206.46768 0.03891
2204.53895 0.03887
2202.61022 0.03784
2200.68149 0.03687
2198.75276 0.03725
2196.82403 0.03824
2194.89530 0.03812
2192.96656 0.03720
2191.03783 0.03751
2189.10910 0.03880
2187.18037 0.03916
2185.25164 0.03889
2183.32291 0.03966
2181.39418 0.04165
2179.46545 0.04376
2177.53672 0.04464
2175.60799 0.04322
2173.67926 0.04063
2171.75053 0.03949
2169.82180 0.04007
2167.89307 0.04055
2165.96434 0.04040
2164.03561 0.04100
2162.10688 0.04251
2160.17815 0.04300
2158.24942 0.04196
2156.32069 0.04055
2154.39195 0.03907
2152.46322 0.03789
2150.53449 0.03771
2148.60576 0.03766
2146.67703 0.03700
2144.74830 0.03593
2142.81957 0.03446
2140.89084 0.03403
2138.96211 0.03588
2137.03338 0.03781
2135.10465 0.03743
2133.17592 0.03593
2131.24719 0.03500
2129.31846 0.03416
2127.38973 0.03287
2125.46100 0.03160
2123.53227 0.03095
2121.60354 0.03113
2119.67481 0.03178
2117.74608 0.03231
2115.81735 0.03244
2113.88861 0.03262
2111.95988 0.03319
2110.03115 0.03356
2108.10242 0.03322
2106.17369 0.03246
2104.24496 0.03202
2102.31623 0.03211
2100.38750 0.03212
2098.45877 0.03212
2096.53004 0.03226
2094.60131 0.03228
2092.67258 0.03248
2090.74385 0.03288
2088.81512 0.03279
2086.88639 0.03227
2084.95766 0.03182
2083.02893 0.03141
2081.10020 0.03136
2079.17147 0.03242
2077.24274 0.03395
2075.31400 0.03425
2073.38527 0.03330
2071.45654 0.03272
2069.52781 0.03311
2067.59908 0.03346
2065.67035 0.03318
2063.74162 0.03280
2061.81289 0.03285
2059.88416 0.03307
2057.95543 0.03341
2056.02670 0.03413
2054.09797 0.03467
2052.16924 0.03486
2050.24051 0.03539
2048.31178 0.03636
2046.38305 0.03741
2044.45432 0.03764
2042.52559 0.03668
2040.59686 0.03598
2038.66813 0.03669
2036.73940 0.03815
2034.81066 0.03916
2032.88193 0.03932
2030.95320 0.03893
2029.02447 0.03826
2027.09574 0.03780
2025.16701 0.03756
2023.23828 0.03665
2021.30955 0.03546
2019.38082 0.03533
2017.45209 0.03592
2015.52336 0.03625
2013.59463 0.03612
2011.66590 0.03493
2009.73717 0.03312
2007.80844 0.03339
2005.87971 0.03632
2003.95098 0.03852
2002.02225 0.03769
2000.09352 0.03526
1998.16479 0.03351
1996.23605 0.03302
1994.30732 0.03320
1992.37859 0.03322
1990.44986 0.03313
1988.52113 0.03353
1986.59240 0.03416
1984.66367 0.03474
1982.73494 0.03528
1980.80621 0.03541
1978.87748 0.03502
1976.94875 0.03451
1975.02002 0.03467
1973.09129 0.03538
1971.16256 0.03555
1969.23383 0.03476
1967.30510 0.03355
1965.37637 0.03243
1963.44764 0.03155
1961.51891 0.03126
1959.59018 0.03139
1957.66145 0.03138
1955.73271 0.03116
1953.80398 0.03066
1951.87525 0.03032
1949.94652 0.03082
1948.01779 0.03152
1946.08906 0.03157
1944.16033 0.03082
1942.23160 0.02979
1940.30287 0.02914
1938.37414 0.02870
1936.44541 0.02815
1934.51668 0.02778
1932.58795 0.02770
1930.65922 0.02752
1928.73049 0.02708
1926.80176 0.02683
1924.87303 0.02725
1922.94430 0.02794
1921.01557 0.02829
1919.08684 0.02826
1917.15810 0.02786
1915.22937 0.02736
1913.30064 0.02721
1911.37191 0.02726
1909.44318 0.02718
1907.51445 0.02706
1905.58572 0.02697
1903.65699 0.02685
1901.72826 0.02671
1899.79953 0.02654
1897.87080 0.02638
1895.94207 0.02604
1894.01334 0.02531
1892.08461 0.02460
1890.15588 0.02455
1888.22715 0.02525
1886.29842 0.02604
1884.36969 0.02635
1882.44096 0.02657
1880.51223 0.02703
1878.58350 0.02724
1876.65476 0.02669
1874.72603 0.02569
1872.79730 0.02500
1870.86857 0.02515
1868.93984 0.02585
1867.01111 0.02605
1865.08238 0.02554
1863.15365 0.02513
1861.22492 0.02503
1859.29619 0.02477
1857.36746 0.02445
1855.43873 0.02451
1853.51000 0.02483
1851.58127 0.02497
1849.65254 0.02501
1847.72381 0.02521
1845.79508 0.02532
1843.86635 0.02500
1841.93762 0.02452
1840.00889 0.02426
1838.08015 0.02411
1836.15142 0.02372
1834.22269 0.02321
1832.29396 0.02296
1830.36523 0.02300
1828.43650 0.02312
1826.50777 0.02337
1824.57904 0.02385
1822.65031 0.02422
1820.72158 0.02408
1818.79285 0.02365
1816.86412 0.02353
1814.93539 0.02389
1813.00666 0.02412
1811.07793 0.02371
1809.14920 0.02306
1807.22047 0.02282
1805.29174 0.02305
1803.36301 0.02340
1801.43428 0.02361
1799.50555 0.02361
1797.57681 0.02344
1795.64808 0.02314
1793.71935 0.02275
1791.79062 0.02240
1789.86189 0.02235
1787.93316 0.02265
1786.00443 0.02296
1784.07570 0.02283
1782.14697 0.02243
1780.21824 0.02220
1778.28951 0.02219
1776.36078 0.02225
1774.43205 0.02241
1772.50332 0.02266
1770.57459 0.02270
1768.64586 0.02242
1766.71713 0.02215
1764.78840 0.02214
1762.85967 0.02223
1760.93094 0.02214
1759.00220 0.02190
1757.07347 0.02176
1755.14474 0.02175
1753.21601 0.02180
1751.28728 0.02194
1749.35855 0.02216
1747.42982 0.02231
1745.50109 0.02220
1743.57236 0.02185
1741.64363 0.02152
1739.71490 0.02142
1737.78617 0.02148
1735.85744 0.02161
1733.92871 0.02185
1731.99998 0.02217
1730.07125 0.02242
1728.14252 0.02257
1726.21379 0.02268
1724.28506 0.02276
1722.35633 0.02278
1720.42760 0.02270
1718.49886 0.02262
1716.57013 0.02258
1714.64140 0.02250
1712.71267 0.02236
1710.78394 0.02222
1708.85521 0.02218
1706.92648 0.02227
1704.99775 0.02243
1703.06902 0.02249
1701.14029 0.02228
1699.21156 0.02187
1697.28283 0.02149
1695.35410 0.02134
1693.42537 0.02146
1691.49664 0.02175
1689.56791 0.02205
1687.63918 0.02225
1685.71045 0.02240
1683.78172 0.02268
1681.85299 0.02304
1679.92425 0.02332
1677.99552 0.02349
1676.06679 0.02364
1674.13806 0.02378
1672.20933 0.02387
1670.28060 0.02397
1668.35187 0.02414
1666.42314 0.02438
1664.49441 0.02469
1662.56568 0.02506
1660.63695 0.02539
1658.70822 0.02555
1656.77949 0.02551
1654.85076 0.02532
1652.92203 0.02511
1650.99330 0.02499
1649.06457 0.02500
1647.13584 0.02503
1645.20711 0.02495
1643.27838 0.02479
1641.34965 0.02467
1639.42091 0.02463
1637.49218 0.02465
1635.56345 0.02468
1633.63472 0.02465
1631.70599 0.02451
1629.77726 0.02422
1627.84853 0.02384
1625.91980 0.02349
1623.99107 0.02331
1622.06234 0.02329
1620.13361 0.02326
1618.20488 0.02316
1616.27615 0.02309
1614.34742 0.02313
1612.41869 0.02320
1610.48996 0.02320
1608.56123 0.02313
1606.63250 0.02310
1604.70377 0.02313
1602.77504 0.02312
1600.84630 0.02299
1598.91757 0.02279
1596.98884 0.02256
1595.06011 0.02238
1593.13138 0.02227
1591.20265 0.02221
1589.27392 0.02215
1587.34519 0.02205
1585.41646 0.02193
1583.48773 0.02178
1581.55900 0.02165
1579.63027 0.02151
1577.70154 0.02134
1575.77281 0.02112
1573.84408 0.02089
1571.91535 0.02073
1569.98662 0.02065
1568.05789 0.02061
1566.12916 0.02053
1564.20043 0.02038
1562.27170 0.02019
1560.34296 0.02006
1558.41423 0.02001
1556.48550 0.01996
1554.55677 0.01992
1552.62804 0.01986
1550.69931 0.01978
1548.77058 0.01970
1546.84185 0.01966
1544.91312 0.01965
1542.98439 0.01966
1541.05566 0.01961
1539.12693 0.01946
1537.19820 0.01923
1535.26947 0.01901
1533.34074 0.01887
1531.41201 0.01884
1529.48328 0.01885
1527.55455 0.01885
1525.62582 0.01882
1523.69709 0.01879
1521.76835 0.01879
1519.83962 0.01879
1517.91089 0.01877
1515.98216 0.01869
1514.05343 0.01850
1512.12470 0.01827
1510.19597 0.01809
1508.26724 0.01796
1506.33851 0.01781
1504.40978 0.01771
1502.48105 0.01778
1500.55232 0.01796
1498.62359 0.01813
1496.69486 0.01828
1494.76613 0.01851
1492.83740 0.01900
1490.90867 0.01979
1488.97994 0.02072
1487.05121 0.02153
1485.12248 0.02210
1483.19375 0.02243
1481.26501 0.02258
1479.33628 0.02273
1477.40755 0.02296
1475.47882 0.02324
1473.55009 0.02351
1471.62136 0.02385
1469.69263 0.02433
1467.76390 0.02500
1465.83517 0.02591
1463.90644 0.02696
1461.97771 0.02794
1460.04898 0.02878
1458.12025 0.02954
1456.19152 0.03018
1454.26279 0.03058
1452.33406 0.03070
1450.40533 0.03059
1448.47660 0.03032
1446.54787 0.03001
1444.61914 0.02988
1442.69040 0.03008
1440.76167 0.03067
1438.83294 0.03174
1436.90421 0.03335
1434.97548 0.03528
1433.04675 0.03715
1431.11802 0.03870
1429.18929 0.03965
1427.26056 0.03979
1425.33183 0.03919
1423.40310 0.03797
1421.47437 0.03614
1419.54564 0.03374
1417.61691 0.03123
1415.68818 0.02923
1413.75945 0.02786
1411.83072 0.02700
1409.90199 0.02650
1407.97326 0.02625
1406.04453 0.02610
1404.11580 0.02587
1402.18706 0.02551
1400.25833 0.02517
1398.32960 0.02492
1396.40087 0.02476
1394.47214 0.02464
1392.54341 0.02466
1390.61468 0.02499
1388.68595 0.02569
1386.75722 0.02663
1384.82849 0.02778
1382.89976 0.02925
1380.97103 0.03113
1379.04230 0.03335
1377.11357 0.03581
1375.18484 0.03835
1373.25611 0.04058
1371.32738 0.04192
1369.39865 0.04218
1367.46992 0.04184
1365.54119 0.04171
1363.61245 0.04220
1361.68372 0.04280
1359.75499 0.04287
1357.82626 0.04236
1355.89753 0.04141
1353.96880 0.03997
1352.04007 0.03832
1350.11134 0.03714
1348.18261 0.03689
1346.25388 0.03760
1344.32515 0.03907
1342.39642 0.04125
1340.46769 0.04387
1338.53896 0.04609
1336.61023 0.04704
1334.68150 0.04659
1332.75277 0.04510
1330.82404 0.04319
1328.89531 0.04158
1326.96658 0.04080
1325.03785 0.04100
1323.10911 0.04206
1321.18038 0.04380
1319.25165 0.04599
1317.32292 0.04798
1315.39419 0.04880
1313.46546 0.04788
1311.53673 0.04552
1309.60800 0.04240
1307.67927 0.03909
1305.75054 0.03599
1303.82181 0.03340
1301.89308 0.03139
1299.96435 0.03000
1298.03562 0.02927
1296.10689 0.02907
1294.17816 0.02907
1292.24943 0.02886
1290.32070 0.02838
1288.39197 0.02820
1286.46324 0.02889
1284.53450 0.03032
1282.60577 0.03167
1280.67704 0.03216
1278.74831 0.03156
1276.81958 0.03022
1274.89085 0.02871
1272.96212 0.02733
1271.03339 0.02614
1269.10466 0.02510
1267.17593 0.02422
1265.24720 0.02361
1263.31847 0.02320
1261.38974 0.02277
1259.46101 0.02219
1257.53228 0.02164
1255.60355 0.02144
1253.67482 0.02175
1251.74609 0.02234
1249.81736 0.02277
1247.88863 0.02268
1245.95990 0.02206
1244.03116 0.02126
1242.10243 0.02057
1240.17370 0.02015
1238.24497 0.02007
1236.31624 0.02030
1234.38751 0.02041
1232.45878 0.01989
1230.53005 0.01880
1228.60132 0.01753
1226.67259 0.01635
1224.74386 0.01543
1222.81513 0.01482
1220.88640 0.01445
1218.95767 0.01421
1217.02894 0.01408
1215.10021 0.01424
1213.17148 0.01499
1211.24275 0.01649
1209.31402 0.01852
1207.38529 0.02035
1205.45655 0.02125
1203.52782 0.02116
1201.59909 0.02057
1199.67036 0.01982
1197.74163 0.01882
1195.81290 0.01757
1193.88417 0.01653
1191.95544 0.01589
1190.02671 0.01543
1188.09798 0.01522
1186.16925 0.01542
1184.24052 0.01605
1182.31179 0.01725
1180.38306 0.01919
1178.45433 0.02188
1176.52560 0.02515
1174.59687 0.02922
1172.66814 0.03473
1170.73941 0.04186
1168.81068 0.05008
1166.88195 0.05844
1164.95321 0.06538
1163.02448 0.06908
1161.09575 0.06895
1159.16702 0.06617
1157.23829 0.06229
1155.30956 0.05834
1153.38083 0.05470
1151.45210 0.05109
1149.52337 0.04744
1147.59464 0.04398
1145.66591 0.04067
1143.73718 0.03758
1141.80845 0.03525
1139.87972 0.03419
1137.95099 0.03457
1136.02226 0.03605
1134.09353 0.03813
1132.16480 0.04064
1130.23607 0.04388
1128.30734 0.04814
1126.37860 0.05308
1124.44987 0.05769
1122.52114 0.06148
1120.59241 0.06521
1118.66368 0.07006
1116.73495 0.07658
1114.80622 0.08449
1112.87749 0.09226
1110.94876 0.09743
1109.02003 0.09840
1107.09130 0.09556
1105.16257 0.09046
1103.23384 0.08466
1101.30511 0.07913
1099.37638 0.07417
1097.44765 0.06986
1095.51892 0.06631
1093.59019 0.06357
1091.66146 0.06197
1089.73273 0.06164
1087.80400 0.06183
1085.87526 0.06207
1083.94653 0.06292
1082.01780 0.06491
1080.08907 0.06783
1078.16034 0.07138
1076.23161 0.07560
1074.30288 0.08054
1072.37415 0.08620
1070.44542 0.09304
1068.51669 0.10163
1066.58796 0.11239
1064.65923 0.12568
1062.73050 0.14069
1060.80177 0.15453
1058.87304 0.16364
1056.94431 0.16622
1055.01558 0.16269
1053.08685 0.15488
1051.15812 0.14491
1049.22939 0.13435
1047.30065 0.12457
1045.37192 0.11729
1043.44319 0.11452
1041.51446 0.11753
1039.58573 0.12550
1037.65700 0.13558
1035.72827 0.14407
1033.79954 0.14790
1031.87081 0.14623
1029.94208 0.14077
1028.01335 0.13383
1026.08462 0.12666
1024.15589 0.12003
1022.22716 0.11470
1020.29843 0.11111
1018.36970 0.10943
1016.44097 0.10942
1014.51224 0.10967
1012.58351 0.10848
1010.65478 0.10599
1008.72605 0.10382
1006.79731 0.10281
1004.86858 0.10228
1002.93985 0.10126
1001.01112 0.09955
999.08239 0.09726
997.15366 0.09430
995.22493 0.09073
993.29620 0.08712
991.36747 0.08427
989.43874 0.08274
987.51001 0.08234
985.58128 0.08153
983.65255 0.07845
981.72382 0.07297
979.79509 0.06647
977.86636 0.06034
975.93763 0.05519
974.00890 0.05100
972.08017 0.04751
970.15144 0.04438
968.22270 0.04148
966.29397 0.03898
964.36524 0.03682
962.43651 0.03477
960.50778 0.03287
958.57905 0.03118
956.65032 0.02953
954.72159 0.02784
952.79286 0.02620
950.86413 0.02476
948.93540 0.02338
947.00667 0.02190
945.07794 0.02055
943.14921 0.01954
941.22048 0.01871
939.29175 0.01798
937.36302 0.01748
935.43429 0.01696
933.50556 0.01614
931.57683 0.01530
929.64810 0.01464
927.71936 0.01390
925.79063 0.01309
923.86190 0.01254
921.93317 0.01222
920.00444 0.01188
918.07571 0.01158
916.14698 0.01155
914.21825 0.01166
912.28952 0.01171
910.36079 0.01179
908.43206 0.01209
906.50333 0.01253
904.57460 0.01287
902.64587 0.01301
900.71714 0.01304
898.78841 0.01294
896.85968 0.01268
894.93095 0.01236
893.00222 0.01201
891.07349 0.01143
889.14475 0.01045
887.21602 0.00932
885.28729 0.00834
883.35856 0.00758
881.42983 0.00698
879.50110 0.00640
877.57237 0.00579
875.64364 0.00529
873.71491 0.00488
871.78618 0.00438
869.85745 0.00369
867.92872 0.00299
865.99999 0.00260
864.07126 0.00254
862.14253 0.00256
860.21380 0.00244
858.28507 0.00217
856.35634 0.00200
854.42761 0.00191
852.49888 0.00166
850.57015 0.00137
848.64141 0.00122
846.71268 0.00104
844.78395 0.00076
842.85522 0.00058
840.92649 0.00065
838.99776 0.00084
837.06903 0.00087
835.14030 0.00068
833.21157 0.00050
831.28284 0.00037
829.35411 0.00023
827.42538 0.00011
825.49665 -0.00001
823.56792 -0.00013
821.63919 -0.00021
819.71046 -0.00026
817.78173 -0.00027
815.85300 -0.00021
813.92427 -0.00021
811.99554 -0.00032
810.06680 -0.00034
808.13807 -0.00025
806.20934 -0.00015
804.28061 0.00005
802.35188 0.00039
800.42315 0.00058
798.49442 0.00037
796.56569 0.00009
794.63696 0.00009
792.70823 0.00012
790.77950 0.00000
788.85077 -0.00010
786.92204 -0.00020
784.99331 -0.00047
783.06458 -0.00063
781.13585 -0.00042
779.20712 -0.00018
777.27839 -0.00020
775.34966 -0.00021
773.42093 0.00007
771.49220 0.00046
769.56346 0.00062
767.63473 0.00060
765.70600 0.00067
763.77727 0.00090
761.84854 0.00137
759.91981 0.00197
757.99108 0.00259
756.06235 0.00336
754.13362 0.00414
752.20489 0.00457
750.27616 0.00473
748.34743 0.00495
746.41870 0.00528
744.48997 0.00554
742.56124 0.00549
740.63251 0.00509
738.70378 0.00459
736.77505 0.00432
734.84632 0.00424
732.91759 0.00425
730.98885 0.00454
729.06012 0.00513
727.13139 0.00575
725.20266 0.00631
723.27393 0.00705
721.34520 0.00802
719.41647 0.00888
717.48774 0.00963
715.55901 0.01010
713.63028 0.01027
711.70155 0.01044
709.77282 0.01070
707.84409 0.01091
705.91536 0.01097
703.98663 0.01083
702.05790 0.01061
700.12917 0.01055
698.20044 0.01071
696.27171 0.01089
694.34298 0.01109
692.41425 0.01135
690.48551 0.01164
688.55678 0.01200
686.62805 0.01261
684.69932 0.01357
682.77059 0.01480
680.84186 0.01635
678.91313 0.01807
676.98440 0.01979
675.05567 0.02199
673.12694 0.02509
671.19821 0.02830
669.26948 0.02919
667.34075 0.02683
665.41202 0.02563
663.48329 0.02620
661.55456 0.02617
659.62583 0.02484
657.69710 0.02272
655.76837 0.02034
653.83964 0.01827
651.91090 0.01678
649.98217 0.01584
648.05344 0.01537
646.12471 0.01518
644.19598 0.01499
642.26725 0.01459
640.33852 0.01435
638.40979 0.01492
636.48106 0.01623
634.55233 0.01802
632.62360 0.01990
630.69487 0.02086
628.76614 0.02127
626.83741 0.02131
624.90868 0.02150
622.97995 0.02222
621.05122 0.02342
619.12249 0.02507
617.19376 0.02692
615.26503 0.02797
613.33630 0.02760
611.40756 0.02744
609.47883 0.02846
607.55010 0.02791
605.62137 0.02444
603.69264 0.02127
601.76391 0.02088
599.83518 0.02177
597.90645 0.02159
595.97772 0.02051
594.04899 0.01996
592.12026 0.01932
590.19153 0.01705
588.26280 0.01407
586.33407 0.01257
584.40534 0.01325
582.47661 0.01471
580.54788 0.01544
578.61915 0.01569
576.69042 0.01518
574.76169 0.01276
572.83295 0.00975
570.90422 0.00901
568.97549 0.01067
567.04676 0.01253
565.11803 0.01385
563.18930 0.01606
561.26057 0.02062
559.33184 0.02481
557.40311 0.02285
555.47438 0.01587
553.54565 0.01172
551.61692 0.01272
549.68819 0.01303
547.75946 0.01092
545.83073 0.01137
543.90200 0.01164
541.97327 0.00553
540.04454 0.00000
